epoch;accuracy;loss;val_accuracy;val_loss
0;0.04264197126030922;3.819354772567749;0.0783475786447525;3.6903235912323
1;0.09189904481172562;3.545686721801758;0.10541310906410217;3.454543352127075
2;0.13291268050670624;3.3040690422058105;0.1367521435022354;3.2991693019866943
3;0.1660899668931961;3.1291327476501465;0.18376068770885468;3.0763468742370605
4;0.19031141698360443;2.952568531036377;0.20014244318008423;2.9849627017974854
5;0.22165682911872864;2.800339460372925;0.1972934454679489;2.922805070877075
6;0.254223495721817;2.665250539779663;0.2578347623348236;2.710222005844116
7;0.2791573405265808;2.550591468811035;0.2806267738342285;2.5940134525299072
8;0.3007327616214752;2.437253952026367;0.28133901953697205;2.5214452743530273
9;0.32271525263786316;2.3530654907226562;0.3055555522441864;2.452967643737793
10;0.3517199158668518;2.2377402782440186;0.36467236280441284;2.25213623046875
11;0.3598615825176239;2.1681056022644043;0.38817664980888367;2.1416399478912354
12;0.38876450061798096;2.0821316242218018;0.42022791504859924;2.035121440887451
13;0.4014858603477478;2.0173609256744385;0.43019944429397583;2.0427403450012207
14;0.4150213599205017;1.9556406736373901;0.39814814925193787;2.0347723960876465
15;0.4387339651584625;1.8733422756195068;0.4294871687889099;1.9923869371414185
16;0.449012815952301;1.8208295106887817;0.44301995635032654;1.9426274299621582
17;0.46834927797317505;1.7574408054351807;0.4316239356994629;1.9967633485794067
18;0.4765927195549011;1.713974952697754;0.4615384638309479;1.8930797576904297
19;0.4852432310581207;1.671268105506897;0.45370370149612427;1.9207850694656372
20;0.5047832131385803;1.6197125911712646;0.4843304753303528;1.8489136695861816
21;0.5182169675827026;1.5557713508605957;0.48575499653816223;1.7585476636886597
22;0.5234072804450989;1.5403650999069214;0.5106837749481201;1.7726447582244873
23;0.5433543920516968;1.475635051727295;0.5085470080375671;1.7507903575897217
24;0.5553632974624634;1.4356943368911743;0.47863247990608215;1.8475346565246582
25;0.5645226836204529;1.4102740287780762;0.5334757566452026;1.6481248140335083
26;0.5706289410591125;1.3785088062286377;0.5099714994430542;1.712128758430481
27;0.5826379060745239;1.3330339193344116;0.49643874168395996;1.7689810991287231
28;0.580195426940918;1.3169461488723755;0.5078347325325012;1.7800525426864624
29;0.5900671482086182;1.2981147766113281;0.5092592835426331;1.7760512828826904
30;0.60177081823349;1.2596237659454346;0.5527065396308899;1.6226612329483032
31;0.6067575812339783;1.2411255836486816;0.56339031457901;1.5742707252502441
32;0.613881528377533;1.2173370122909546;0.5562677979469299;1.6294692754745483
33;0.623142659664154;1.1793638467788696;0.5477207899093628;1.627177119255066
34;0.6339303851127625;1.1506457328796387;0.5078347325325012;1.8005157709121704
35;0.6392224431037903;1.1213233470916748;0.5762107968330383;1.5929720401763916
36;0.642886221408844;1.119868278503418;0.5498575568199158;1.645108699798584
37;0.6508243680000305;1.0873091220855713;0.5605413317680359;1.6477874517440796
38;0.6577447652816772;1.0752875804901123;0.5726495981216431;1.6489129066467285
39;0.6578465104103088;1.0482430458068848;0.5277777910232544;1.7230921983718872
40;0.6744351983070374;1.0096491575241089;0.565527081489563;1.6484315395355225
41;0.6715855598449707;1.0046499967575073;0.5491452813148499;1.7477213144302368
42;0.6791166067123413;0.982886791229248;0.5420227646827698;1.7383058071136475
43;0.6823732852935791;0.9833680391311646;0.6004273295402527;1.5292930603027344
44;0.6952981948852539;0.947789192199707;0.5683760643005371;1.591628909111023
45;0.6983513236045837;0.9461072087287903;0.5648148059844971;1.6693360805511475
46;0.6988601684570312;0.9257885217666626;0.5868945717811584;1.56739342212677
47;0.7125992178916931;0.9023380875587463;0.5947293639183044;1.5252360105514526
48;0.7168735861778259;0.8773699402809143;0.5997151136398315;1.6066257953643799
49;0.7176877856254578;0.8818523287773132;0.5747863054275513;1.5923874378204346
50;0.7216567993164062;0.8675789833068848;0.5833333134651184;1.6537104845046997
51;0.7252188324928284;0.853146493434906;0.5491452813148499;1.7757980823516846
52;0.7239975333213806;0.846431314945221;0.6047008633613586;1.5228899717330933
53;0.7283737063407898;0.8264890909194946;0.624643862247467;1.501438021659851
54;0.7362100481987;0.8057131171226501;0.6103988885879517;1.5516740083694458
55;0.7382454872131348;0.7987358570098877;0.6203703880310059;1.540024995803833
56;0.7433339953422546;0.8016993999481201;0.6096866130828857;1.5271711349487305
57;0.7427234053611755;0.7945740222930908;0.621082603931427;1.5274202823638916
58;0.7477101683616638;0.7770766615867615;0.625356137752533;1.4764434099197388
59;0.7582943439483643;0.7460888028144836;0.6282051205635071;1.5199995040893555
60;0.7382454872131348;0.8166541457176208;0.617521345615387;1.4696556329727173
61;0.7568695545196533;0.7515494227409363;0.6075498461723328;1.6322013139724731
62;0.7605332732200623;0.7404084205627441;0.5940170884132385;1.7416871786117554
63;0.7645023465156555;0.7213578224182129;0.5762107968330383;1.711134672164917
64;0.7631793022155762;0.7157412171363831;0.6004273295402527;1.6144449710845947
65;0.7697944045066833;0.6990031599998474;0.6239316463470459;1.5864356756210327
66;0.7683696150779724;0.7150447964668274;0.632478654384613;1.5204353332519531
67;0.7777325510978699;0.6794177889823914;0.6125355958938599;1.5578900575637817
68;0.7856706976890564;0.6556681990623474;0.6146723628044128;1.628627896308899
69;0.7815998196601868;0.6672524213790894;0.6068376302719116;1.636437177658081
70;0.786586582660675;0.6491163372993469;0.6082621216773987;1.6217989921569824
71;0.7819051742553711;0.6499555110931396;0.621082603931427;1.6324447393417358
72;0.7854671478271484;0.6617770791053772;0.62321937084198;1.5998497009277344
73;0.7835334539413452;0.6499283313751221;0.6196581125259399;1.6232852935791016
74;0.7925910949707031;0.6338145732879639;0.6160968542098999;1.6903046369552612
75;0.7958477735519409;0.6220871210098267;0.6061253547668457;1.7320135831832886
76;0.7918787002563477;0.6439852118492126;0.6303418874740601;1.5475994348526
77;0.7969672083854675;0.6254806518554688;0.5997151136398315;1.6359424591064453
78;0.8001221418380737;0.6128036379814148;0.62678062915802;1.5586953163146973
79;0.8006309866905212;0.5995848774909973;0.5897436141967773;1.856027603149414
80;0.807551383972168;0.5909682512283325;0.5968660712242126;1.8210866451263428
81;0.8084673285484314;0.5956310629844666;0.62321937084198;1.5970245599746704
82;0.8107063174247742;0.5687776803970337;0.6039885878562927;1.68586266040802
83;0.8072460889816284;0.5795756578445435;0.6403133869171143;1.5400853157043457
84;0.8142682909965515;0.5620995163917542;0.6160968542098999;1.6911379098892212
85;0.8013433814048767;0.6075280904769897;0.6217948794364929;1.62991464138031
86;0.8165072202682495;0.5531312823295593;0.6189458966255188;1.626784324645996
87;0.8146753311157227;0.5696418881416321;0.6189458966255188;1.6611961126327515
88;0.8069407939910889;0.5827193260192871;0.6282051205635071;1.6074950695037842
89;0.836759626865387;0.5062952041625977;0.6331908702850342;1.637946605682373
90;0.8167107701301575;0.5490289330482483;0.6118233799934387;1.8259676694869995
91;0.8113169074058533;0.5658138990402222;0.6139600872993469;1.651303768157959
92;0.8240382671356201;0.5322661399841309;0.6602563858032227;1.5194703340530396
93;0.8347241878509521;0.509712278842926;0.6317663788795471;1.7177273035049438
94;0.8339100480079651;0.5037714242935181;0.5982906222343445;1.7403697967529297
95;0.8286179304122925;0.5239710211753845;0.6182336211204529;1.7213165760040283
96;0.8313657641410828;0.5113207101821899;0.6495726704597473;1.5748225450515747
97;0.8280073404312134;0.5197287201881409;0.6217948794364929;1.706876277923584
98;0.8350295424461365;0.4936775267124176;0.6581196784973145;1.5761237144470215
99;0.8391003608703613;0.4979904294013977;0.6196581125259399;1.8070751428604126
0;0.0411154069006443;3.8027408123016357;0.0655270665884018;3.633631944656372
1;0.08742112666368484;3.546178102493286;0.10683760792016983;3.4833438396453857
2;0.12914715707302094;3.3327157497406006;0.14245013892650604;3.2100203037261963
3;0.1541827768087387;3.140660285949707;0.13532763719558716;3.3288521766662598
4;0.1915326714515686;2.9656450748443604;0.21509972214698792;2.9317939281463623
5;0.22267453372478485;2.8214757442474365;0.20512820780277252;2.9430623054504395
6;0.24486057460308075;2.696385622024536;0.2656695246696472;2.657357931137085
7;0.2705068290233612;2.5913023948669434;0.2905983030796051;2.5851340293884277
8;0.2938123345375061;2.4683175086975098;0.27421653270721436;2.6660332679748535
9;0.31793200969696045;2.380016565322876;0.3105413019657135;2.4367258548736572
10;0.34164461493492126;2.273038625717163;0.3205128312110901;2.3856146335601807
11;0.35955628752708435;2.187852382659912;0.3333333432674408;2.2727088928222656
12;0.3726847171783447;2.123915195465088;0.3668091297149658;2.23134446144104
13;0.3950742781162262;2.042750120162964;0.3988603949546814;2.1015045642852783
14;0.4068796932697296;1.9670125246047974;0.41524216532707214;2.0563833713531494
15;0.4340525269508362;1.8925081491470337;0.406695157289505;2.0786960124969482
16;0.44626501202583313;1.8571797609329224;0.40028488636016846;2.046902656555176
17;0.45745980739593506;1.791132926940918;0.43874645233154297;1.9808963537216187
18;0.4772033393383026;1.7266334295272827;0.42022791504859924;2.104640483856201
19;0.4843272864818573;1.689448595046997;0.4472934603691101;2.000875473022461
20;0.4994911551475525;1.6254913806915283;0.4095441699028015;2.051333427429199
21;0.5100753307342529;1.5854560136795044;0.4344729483127594;2.008108377456665
22;0.5173010230064392;1.5689208507537842;0.47079771757125854;1.8279187679290771
23;0.5378587245941162;1.4926670789718628;0.4472934603691101;1.9861946105957031
24;0.5445756316184998;1.4704370498657227;0.48361822962760925;1.8187028169631958
25;0.5519031286239624;1.431143045425415;0.5028489828109741;1.7568029165267944
26;0.5575004816055298;1.4037692546844482;0.5199429988861084;1.6454027891159058
27;0.5782617330551147;1.3531310558319092;0.49572649598121643;1.7938308715820312
28;0.5934256315231323;1.3179616928100586;0.45797720551490784;2.002640962600708
29;0.5852839350700378;1.306802749633789;0.497863233089447;1.7476526498794556
30;0.6085894703865051;1.257369041442871;0.4871794879436493;1.8765106201171875
31;0.6061469316482544;1.243440866470337;0.5149572491645813;1.7223855257034302
32;0.6139833331108093;1.2306119203567505;0.5363247990608215;1.6541069746017456
33;0.6215143203735352;1.1993848085403442;0.5227920413017273;1.702323317527771
34;0.6271117329597473;1.1771726608276367;0.5142450332641602;1.8077352046966553
35;0.6429879665374756;1.1309505701065063;0.5448718070983887;1.6195800304412842
36;0.6569305658340454;1.0907866954803467;0.5;1.8042463064193726
37;0.6518420577049255;1.1040247678756714;0.5505697727203369;1.606823205947876
38;0.6424791216850281;1.138178825378418;0.561253547668457;1.5944527387619019
39;0.6639527678489685;1.0470260381698608;0.5719373226165771;1.5726991891860962
40;0.6648687124252319;1.0394583940505981;0.554131031036377;1.5872753858566284
41;0.6817626953125;1.0026906728744507;0.56695157289505;1.531952977180481
42;0.6744351983070374;1.0146669149398804;0.5712250471115112;1.5180519819259644
43;0.6976389288902283;0.9507321715354919;0.5790598392486572;1.5299383401870728
44;0.6820679903030396;0.9745432734489441;0.5584045648574829;1.6496098041534424
45;0.6904131770133972;0.9744305610656738;0.5683760643005371;1.5796111822128296
46;0.6994708180427551;0.9394126534461975;0.5698005557060242;1.5988409519195557
47;0.702320396900177;0.9146105051040649;0.561253547668457;1.7156232595443726
48;0.7046611309051514;0.9190726280212402;0.565527081489563;1.6926264762878418
49;0.707001805305481;0.8800351619720459;0.5947293639183044;1.5614124536514282
50;0.7199267148971558;0.8629314303398132;0.6111111044883728;1.5424808263778687
51;0.7303073406219482;0.8490802645683289;0.6018518805503845;1.5550271272659302
52;0.7231833934783936;0.8488057255744934;0.5797720551490784;1.6406667232513428
53;0.7288825511932373;0.8362283110618591;0.5648148059844971;1.6889034509658813
54;0.7417056560516357;0.8067086935043335;0.5911681056022644;1.6091718673706055
55;0.7371259927749634;0.8169322609901428;0.5854700803756714;1.6465915441513062
56;0.7312232851982117;0.8282896280288696;0.6203703880310059;1.4737123250961304
57;0.7415021657943726;0.7803131341934204;0.6018518805503845;1.5644077062606812
58;0.7449623346328735;0.7711032629013062;0.6132478713989258;1.5598245859146118
59;0.7477101683616638;0.7780371904373169;0.5954415798187256;1.5963248014450073
60;0.7613474726676941;0.7297347187995911;0.5826210975646973;1.6976304054260254
61;0.7587013840675354;0.742237389087677;0.5754985809326172;1.7553433179855347
62;0.7595155835151672;0.7438116073608398;0.5968660712242126;1.6299439668655396
63;0.7702015042304993;0.7094613313674927;0.5826210975646973;1.7716031074523926
64;0.7613474726676941;0.732788622379303;0.5698005557060242;1.7494969367980957
65;0.7693873643875122;0.7034719586372375;0.5911681056022644;1.6766259670257568
66;0.7744758725166321;0.6893754601478577;0.5790598392486572;1.784246802330017
67;0.7780378460884094;0.6887561678886414;0.6025640964508057;1.6929352283477783
68;0.7785466909408569;0.6738787889480591;0.6203703880310059;1.6083256006240845
69;0.7830246090888977;0.6663474440574646;0.5961538553237915;1.7127457857131958
70;0.7786484956741333;0.6779307126998901;0.6168091297149658;1.6462854146957397
71;0.786993682384491;0.659314751625061;0.5847578644752502;1.7679283618927002
72;0.7864848375320435;0.6472828984260559;0.6602563858032227;1.422202467918396
73;0.7894361615180969;0.641975462436676;0.628917396068573;1.5392546653747559
74;0.7909627556800842;0.626829981803894;0.6460114121437073;1.4476878643035889
75;0.7899450659751892;0.6401501297950745;0.5947293639183044;1.7522188425064087
76;0.7872989773750305;0.6362123489379883;0.5918803215026855;1.7584246397018433
77;0.8013433814048767;0.6057842373847961;0.5747863054275513;1.826973557472229
78;0.7940158843994141;0.6273201704025269;0.5961538553237915;1.713963508605957
79;0.804905354976654;0.5937361717224121;0.617521345615387;1.570290207862854
80;0.8018522262573242;0.6091685891151428;0.6096866130828857;1.7293381690979004
81;0.8098921179771423;0.5753170251846313;0.6168091297149658;1.6601110696792603
82;0.8032770156860352;0.5947506427764893;0.6274929046630859;1.6310300827026367
83;0.8192550539970398;0.5632277131080627;0.5982906222343445;1.850899338722229
84;0.7814980745315552;0.6812273263931274;0.6388888955116272;1.6199144124984741
85;0.8180338144302368;0.5613000988960266;0.6303418874740601;1.6643880605697632
86;0.8144717812538147;0.5560915470123291;0.6182336211204529;1.7147307395935059
87;0.8175249099731445;0.5578793883323669;0.6374644041061401;1.5876991748809814
88;0.825870156288147;0.542499840259552;0.6011396050453186;1.7038642168045044
89;0.8234276175498962;0.5372335314750671;0.5918803215026855;1.8822768926620483
90;0.825870156288147;0.523138701915741;0.6488603949546814;1.6008607149124146
91;0.818440854549408;0.543441653251648;0.5897436141967773;1.81801438331604
92;0.8064318895339966;0.5932130813598633;0.628917396068573;1.6685711145401
93;0.8350295424461365;0.5068342089653015;0.6146723628044128;1.7580949068069458
94;0.8265825510025024;0.5276140570640564;0.6445869207382202;1.5952259302139282
95;0.8308569192886353;0.5186793804168701;0.6481481194496155;1.5868223905563354
96;0.8222063779830933;0.5391976237297058;0.6438746452331543;1.637956976890564
97;0.8332993984222412;0.4929724931716919;0.6303418874740601;1.7403292655944824
98;0.8455119132995605;0.47106578946113586;0.6089743375778198;1.9266542196273804
99;0.8373702168464661;0.49592816829681396;0.6146723628044128;1.873613715171814
100;0.8320781588554382;0.5120592713356018;0.5982906222343445;1.9824472665786743
101;0.8364543318748474;0.49403801560401917;0.6047008633613586;1.9198206663131714
102;0.8412375450134277;0.47985514998435974;0.6509971618652344;1.6020370721817017
103;0.8410339951515198;0.4831569790840149;0.6438746452331543;1.707228660583496
104;0.8473438024520874;0.46355485916137695;0.628917396068573;1.6799986362457275
105;0.8487685918807983;0.4679330587387085;0.6160968542098999;1.8271070718765259
106;0.8374720215797424;0.4776601195335388;0.6638176441192627;1.5449920892715454
107;0.8427640795707703;0.4760463535785675;0.6189458966255188;1.832411527633667
108;0.8499898314476013;0.4554370939731598;0.6274929046630859;1.7551984786987305
109;0.8406268954277039;0.49473604559898376;0.6310541033744812;1.7300766706466675
110;0.8556889891624451;0.43934231996536255;0.632478654384613;1.7600078582763672
111;0.8485650420188904;0.4754752814769745;0.6353276371955872;1.7748746871948242
112;0.8576226234436035;0.43576687574386597;0.632478654384613;1.7542470693588257
113;0.8535518050193787;0.4499431848526001;0.628917396068573;1.8747180700302124
114;0.8497862815856934;0.4631860554218292;0.6474359035491943;1.665473461151123
115;0.845003068447113;0.4705008268356323;0.624643862247467;1.862242579460144
116;0.8557907342910767;0.4463256001472473;0.6296296119689941;1.8199201822280884
117;0.8547730445861816;0.431548535823822;0.6388888955116272;1.709662914276123
118;0.8634235858917236;0.4146944582462311;0.6396011114120483;1.8034312725067139
119;0.8656625151634216;0.4179603159427643;0.628917396068573;1.8384846448898315
120;0.8567066788673401;0.436928391456604;0.62678062915802;1.7829116582870483
121;0.8537553548812866;0.4473761022090912;0.5990028381347656;2.0108797550201416
122;0.8553836941719055;0.43807801604270935;0.6310541033744812;1.798720359802246
123;0.8634235858917236;0.417263001203537;0.6331908702850342;1.7838448286056519
124;0.8634235858917236;0.4222082495689392;0.6431623697280884;1.795634150505066
125;0.8608793020248413;0.43074992299079895;0.6374644041061401;1.7512835264205933
126;0.8638306260108948;0.40812861919403076;0.6438746452331543;1.776171088218689
127;0.8658660650253296;0.4023694694042206;0.617521345615387;1.928231120109558
128;0.8550783395767212;0.4450424313545227;0.624643862247467;1.8853747844696045
129;0.8632200360298157;0.42187827825546265;0.6460114121437073;1.8039861917495728
130;0.8725829720497131;0.39881807565689087;0.6096866130828857;1.9624626636505127
131;0.8627111911773682;0.4278990626335144;0.6132478713989258;1.935593605041504
132;0.8556889891624451;0.4400341808795929;0.6217948794364929;1.8507697582244873
133;0.869020938873291;0.4009903371334076;0.6538461446762085;1.7135411500930786
134;0.8621005415916443;0.410585880279541;0.6160968542098999;1.9661550521850586
135;0.8727864623069763;0.3973809480667114;0.6282051205635071;1.84853196144104
136;0.8718705177307129;0.3937946856021881;0.6118233799934387;1.960089087486267
137;0.8715652227401733;0.38661178946495056;0.6531339287757874;1.7070040702819824
138;0.8755342960357666;0.38842013478279114;0.6303418874740601;1.925371766090393
139;0.8679015040397644;0.40857768058776855;0.6146723628044128;1.9159204959869385
140;0.8782821297645569;0.3742150664329529;0.6460114121437073;1.8056272268295288
141;0.8746183514595032;0.3827970027923584;0.6039885878562927;2.1072144508361816
142;0.8710563778877258;0.38561147451400757;0.5982906222343445;2.123276472091675
143;0.8763484358787537;0.37970441579818726;0.6474359035491943;1.7687939405441284
144;0.877671480178833;0.37641656398773193;0.6282051205635071;1.9210145473480225
145;0.8767555356025696;0.3723156154155731;0.6367521286010742;1.8217710256576538
146;0.8740077614784241;0.3864896595478058;0.6552706360816956;1.6825518608093262
147;0.8645430207252502;0.4302786588668823;0.6168091297149658;1.7963382005691528
148;0.8747201561927795;0.37857523560523987;0.6374644041061401;1.8734575510025024
149;0.8741095066070557;0.39225471019744873;0.6367521286010742;1.8304840326309204
150;0.8835741877555847;0.35422345995903015;0.6481481194496155;1.7922693490982056
151;0.8840830326080322;0.3645366430282593;0.6381766200065613;1.841844916343689
152;0.8791980743408203;0.3718547821044922;0.617521345615387;1.9620532989501953
153;0.8798086643218994;0.36049866676330566;0.6581196784973145;1.7851145267486572
154;0.8753307461738586;0.3741719126701355;0.6082621216773987;2.0737104415893555
155;0.8834724426269531;0.37585073709487915;0.5883190631866455;2.1985018253326416
156;0.8796051144599915;0.37281230092048645;0.6474359035491943;1.8622334003448486
157;0.8839812874794006;0.34687158465385437;0.6652421355247498;1.7528159618377686
158;0.8830653429031372;0.3576779365539551;0.6182336211204529;1.989905595779419
159;0.8796051144599915;0.3667808771133423;0.5883190631866455;2.138279676437378
160;0.8780785799026489;0.3657882809638977;0.6217948794364929;1.985326886177063
161;0.8832688927650452;0.3528434634208679;0.6353276371955872;1.856824517250061
162;0.8901892900466919;0.3335387408733368;0.624643862247467;1.9697785377502441
163;0.8844901323318481;0.36318111419677734;0.6502848863601685;1.8333783149719238
164;0.8797069191932678;0.3693639636039734;0.6203703880310059;2.0136873722076416
165;0.8705475330352783;0.3932048976421356;0.6481481194496155;1.8352210521697998
166;0.8862202167510986;0.34162095189094543;0.6353276371955872;1.901431679725647
167;0.8923264741897583;0.32664307951927185;0.6396011114120483;1.9062916040420532
168;0.8726847171783447;0.4007934033870697;0.6310541033744812;1.7826272249221802
169;0.8921229243278503;0.3265061378479004;0.6488603949546814;1.8130277395248413
170;0.8914105296134949;0.32915744185447693;0.6331908702850342;1.8551816940307617
171;0.8799104690551758;0.37717750668525696;0.6396011114120483;1.8596487045288086
172;0.8890697956085205;0.3433609902858734;0.6260683536529541;1.9392445087432861
173;0.8918176293373108;0.33445391058921814;0.6225070953369141;1.995794653892517
174;0.8849989771842957;0.35022351145744324;0.6217948794364929;1.9973907470703125
175;0.8920211791992188;0.3300986588001251;0.6417378783226013;1.9430296421051025
176;0.8943619132041931;0.33234813809394836;0.6396011114120483;1.9107754230499268
177;0.8888662457466125;0.3437688648700714;0.6310541033744812;1.9549427032470703
178;0.8833706378936768;0.3516978621482849;0.6303418874740601;1.9060912132263184
179;0.8893751502037048;0.33583858609199524;0.6467236280441284;1.7598084211349487
180;0.8933441638946533;0.3268846571445465;0.6374644041061401;1.9497078657150269
181;0.8907999396324158;0.3388887643814087;0.6410256624221802;1.8979860544204712
182;0.895990252494812;0.32124701142311096;0.6225070953369141;2.055131196975708
183;0.8916140794754028;0.3292810022830963;0.6538461446762085;1.82302987575531
184;0.8967026472091675;0.3268013596534729;0.6602563858032227;1.7649061679840088
185;0.8954813480377197;0.3273887038230896;0.6623931527137756;1.747130274772644
186;0.8949725031852722;0.32554808259010315;0.6552706360816956;1.80616295337677
187;0.8937512636184692;0.3319563567638397;0.6702279448509216;1.7678438425064087
188;0.8746183514595032;0.3843258321285248;0.632478654384613;1.9265079498291016
189;0.8896804451942444;0.3413848280906677;0.6467236280441284;1.8213731050491333
190;0.8913087844848633;0.33316242694854736;0.6517093777656555;1.8713288307189941
191;0.8956848978996277;0.3093525469303131;0.6452991366386414;1.882493257522583
192;0.9023000001907349;0.3020991384983063;0.6424501538276672;1.86296808719635
193;0.8923264741897583;0.3444152772426605;0.6474359035491943;1.8611005544662476
194;0.9017911553382874;0.29927340149879456;0.6524216532707214;1.8056894540786743
195;0.9028088450431824;0.30530691146850586;0.6445869207382202;1.8933604955673218
196;0.889578640460968;0.3312437832355499;0.6032763719558716;2.180187702178955
197;0.8998575210571289;0.31369748711586;0.6631054282188416;1.8258411884307861
198;0.8990433812141418;0.31088021397590637;0.6538461446762085;1.7944746017456055
199;0.8934459686279297;0.33016616106033325;0.6111111044883728;2.010714530944824
0;0.02127010002732277;3.9482996463775635;0.03561253473162651;3.899661064147949
1;0.04498269781470299;3.7967369556427;0.05911681056022644;3.745018720626831
2;0.0627925917506218;3.680239677429199;0.0833333358168602;3.613438844680786
3;0.07815998047590256;3.5897533893585205;0.10185185074806213;3.5511934757232666
4;0.08599633723497391;3.5091183185577393;0.10754986107349396;3.4964077472686768
5;0.10777529329061508;3.420949935913086;0.1210826188325882;3.395462989807129
6;0.11805414408445358;3.350456476211548;0.11680911481380463;3.339336633682251
7;0.13016486167907715;3.2805631160736084;0.13461539149284363;3.2801356315612793
8;0.1487889289855957;3.188800096511841;0.15954415500164032;3.188831329345703
9;0.16161204874515533;3.1274473667144775;0.17307692766189575;3.1166739463806152
10;0.17402808368206024;3.0624096393585205;0.1972934454679489;3.0866098403930664
11;0.19713006913661957;2.9745869636535645;0.19515669345855713;3.0517663955688477
12;0.2072053700685501;2.906583547592163;0.20512820780277252;3.0011563301086426
13;0.22013026475906372;2.8554203510284424;0.23433049023151398;2.8990044593811035
14;0.23285162448883057;2.7850608825683594;0.24074074625968933;2.8436574935913086
15;0.25076326727867126;2.7255215644836426;0.22934472560882568;2.9271204471588135
16;0.2580907940864563;2.677736282348633;0.26139602065086365;2.7814626693725586
17;0.2711174488067627;2.6116464138031006;0.24643874168395996;2.7699759006500244
18;0.28536534309387207;2.562800645828247;0.2827635407447815;2.6616709232330322
19;0.3020557761192322;2.5025575160980225;0.2735042870044708;2.6838555335998535
20;0.3039894104003906;2.456878423690796;0.26923078298568726;2.7071633338928223
21;0.31080806255340576;2.4339990615844727;0.2756410241127014;2.6409595012664795
22;0.32210463285446167;2.3827648162841797;0.2905983030796051;2.6193768978118896
23;0.3338082730770111;2.312746047973633;0.29914531111717224;2.5965123176574707
24;0.35518014430999756;2.2724907398223877;0.2549857497215271;2.713392972946167
25;0.3539588749408722;2.24186372756958;0.30911681056022644;2.5496902465820312
26;0.3560960590839386;2.198482036590576;0.30199429392814636;2.5490529537200928
27;0.3701404333114624;2.154113531112671;0.3055555522441864;2.5554606914520264
28;0.3859149217605591;2.126812219619751;0.3084045648574829;2.496413230895996
29;0.38337063789367676;2.084421396255493;0.3212250769138336;2.5080440044403076
30;0.3999592959880829;2.042999029159546;0.3304843306541443;2.4810972213745117
31;0.40942397713661194;2.0139451026916504;0.3311965763568878;2.511951208114624
32;0.4139018952846527;1.98615562915802;0.36182335019111633;2.4504647254943848
33;0.42397719621658325;1.9590779542922974;0.35470086336135864;2.465071678161621
34;0.43089762330055237;1.928268313407898;0.3482905924320221;2.449031352996826
35;0.42774271965026855;1.913953423500061;0.3561253547668457;2.3691840171813965
36;0.43639323115348816;1.8966193199157715;0.3461538553237915;2.4477503299713135
37;0.4495216906070709;1.8402270078659058;0.34472933411598206;2.469287872314453
38;0.46173417568206787;1.8070755004882812;0.36182335019111633;2.38814115524292
39;0.46295541524887085;1.7804477214813232;0.3490028381347656;2.479369878768921
40;0.4592916667461395;1.7983295917510986;0.36182335019111633;2.4220879077911377
41;0.47638916969299316;1.7522995471954346;0.33974358439445496;2.4719982147216797
42;0.4724200963973999;1.7467910051345825;0.34757834672927856;2.4910364151000977
43;0.4908406138420105;1.7097766399383545;0.34971511363983154;2.5405538082122803
44;0.4925707280635834;1.6779987812042236;0.3632478713989258;2.4570016860961914
45;0.4977610409259796;1.6799381971359253;0.36253562569618225;2.426154613494873
46;0.507225751876831;1.636169195175171;0.3504273593425751;2.499427556991577
47;0.5127213597297668;1.6121678352355957;0.37535613775253296;2.4429216384887695
48;0.5138408541679382;1.5992932319641113;0.38461539149284363;2.4108760356903076
49;0.5208629965782166;1.5783350467681885;0.37321937084198;2.4174506664276123
50;0.5187258124351501;1.5658334493637085;0.36538460850715637;2.439117670059204
51;0.5211683511734009;1.5699697732925415;0.36965811252593994;2.460723876953125
52;0.5332790613174438;1.5443788766860962;0.3689458668231964;2.4604077339172363
53;0.542336642742157;1.4909662008285522;0.3710826337337494;2.4812817573547363
54;0.5358233451843262;1.5214020013809204;0.3660968542098999;2.501385450363159
55;0.5420313477516174;1.4816429615020752;0.3860398828983307;2.5054216384887695
56;0.549562394618988;1.4603126049041748;0.3888888955116272;2.4657721519470215
57;0.5461021661758423;1.4744517803192139;0.37321937084198;2.504253387451172
58;0.5536332130432129;1.4641032218933105;0.404558390378952;2.4519965648651123
59;0.560655415058136;1.4310786724090576;0.3967236578464508;2.4768970012664795
60;0.5662528276443481;1.411717414855957;0.40028488636016846;2.428821086883545
61;0.5580093860626221;1.420522928237915;0.3888888955116272;2.4719228744506836
62;0.5673722624778748;1.3946030139923096;0.38461539149284363;2.489689826965332
63;0.5776511430740356;1.3739265203475952;0.39529913663864136;2.497450351715088
64;0.5744962096214294;1.3764687776565552;0.38746437430381775;2.466517210006714
65;0.5784652829170227;1.367976427078247;0.38532763719558716;2.5355136394500732
66;0.5867087244987488;1.3346867561340332;0.3689458668231964;2.5784592628479004
67;0.5960716605186462;1.3238543272018433;0.39316239953041077;2.6094558238983154
68;0.5888459086418152;1.3249001502990723;0.40313389897346497;2.5124351978302
69;0.6056380867958069;1.280710220336914;0.40242165327072144;2.548168659210205
70;0.5978017449378967;1.2916183471679688;0.3995726406574249;2.5701773166656494
71;0.6066558361053467;1.2729252576828003;0.3860398828983307;2.582340955734253
72;0.610421359539032;1.2777683734893799;0.3860398828983307;2.6394424438476562
73;0.6127620339393616;1.2582144737243652;0.38034188747406006;2.5346949100494385
74;0.6044168472290039;1.2654770612716675;0.4109686613082886;2.5464141368865967
75;0.6146957278251648;1.2336533069610596;0.3945868909358978;2.6178219318389893
76;0.6117443442344666;1.2234710454940796;0.37962964177131653;2.7595460414886475
77;0.6176470518112183;1.2169650793075562;0.3896011412143707;2.5840420722961426
78;0.6199877858161926;1.2105581760406494;0.39529913663864136;2.654219150543213
79;0.6261957883834839;1.1934562921524048;0.40028488636016846;2.680854558944702
80;0.6260940432548523;1.2070831060409546;0.4216524362564087;2.5838184356689453
81;0.6308772563934326;1.1867413520812988;0.40811964869499207;2.6189019680023193
82;0.6316914558410645;1.1745936870574951;0.3860398828983307;2.7040884494781494
83;0.6343374848365784;1.156944990158081;0.4038461446762085;2.617807149887085
84;0.6306737065315247;1.1825971603393555;0.41310539841651917;2.548114538192749
85;0.6410543322563171;1.1323986053466797;0.3995726406574249;2.6754751205444336
86;0.6420720815658569;1.1365306377410889;0.41310539841651917;2.5568110942840576
87;0.6483818292617798;1.13292396068573;0.37464386224746704;2.7044460773468018
0;0.22112546861171722;2.646210193634033;0.5555555820465088;1.2899343967437744
1;0.5582578778266907;1.1170628070831299;0.7015669345855713;0.7323742508888245
2;0.6784369349479675;0.7392140626907349;0.747863233089447;0.4909793734550476
3;0.7545537948608398;0.5368750691413879;0.8205128312110901;0.3540342152118683
4;0.8062480688095093;0.4171271026134491;0.8774929046630859;0.2575623095035553
5;0.8529561161994934;0.3329334557056427;0.8896011114120483;0.22679583728313446
6;0.8704589605331421;0.2896404266357422;0.9074074029922485;0.17619501054286957
7;0.8929479718208313;0.23948915302753448;0.9066951274871826;0.17359471321105957
0;0.23415081202983856;2.6034343242645264;0.5648148059844971;1.2048345804214478
1;0.5843085646629333;1.034846544265747;0.7485755085945129;0.604590892791748
2;0.7144601345062256;0.6631386280059814;0.7977207899093628;0.4241577386856079
3;0.7853872179985046;0.4810350835323334;0.8490028381347656;0.2996620833873749
4;0.8291441798210144;0.38193243741989136;0.8945869207382202;0.2298029065132141
5;0.8619110584259033;0.3061506152153015;0.9031339287757874;0.18781937658786774
6;0.8859265446662903;0.2541554570198059;0.9237892031669617;0.1618349552154541
7;0.9018011689186096;0.2182246744632721;0.9116809368133545;0.16736359894275665
8;0.9103490114212036;0.19348300993442535;0.9280626773834229;0.12918013334274292
9;0.918998658657074;0.17546413838863373;0.930911660194397;0.12813632190227509
10;0.9292764663696289;0.15273405611515045;0.9430199265480042;0.12670382857322693
11;0.9337539672851562;0.15188458561897278;0.9351851940155029;0.11304227262735367
12;0.9369085431098938;0.13775621354579926;0.9565526843070984;0.09236469864845276
13;0.944337010383606;0.11789605021476746;0.9551281929016113;0.09531686455011368
14;0.9437264800071716;0.1240660548210144;0.9480056762695312;0.09982012957334518
15;0.9462704658508301;0.11625328660011292;0.9558404684066772;0.09316464513540268
16;0.9462704658508301;0.1174420714378357;0.9565526843070984;0.08275646716356277
17;0.9497303366661072;0.11090237647294998;0.9594017267227173;0.08554409444332123
18;0.9570570588111877;0.09779506176710129;0.9601139426231384;0.08532264083623886
19;0.9526813626289368;0.10608959943056107;0.9601139426231384;0.07992486655712128
20;0.9572606086730957;0.09890665858983994;0.9650996923446655;0.08181512355804443
21;0.963773250579834;0.0855390802025795;0.9615384340286255;0.07829751074314117
22;0.9627556800842285;0.08549816906452179;0.9650996923446655;0.08089637011289597
23;0.9650961756706238;0.07820209115743637;0.9594017267227173;0.08026093989610672
24;0.967436671257019;0.08109758794307709;0.9722222089767456;0.073537178337574
25;0.9713035225868225;0.07483009994029999;0.9608262181282043;0.08979802578687668
0;0.19975577294826508;2.870272397994995;0.56339031457901;1.4806792736053467
1;0.5753536224365234;1.229736566543579;0.692307710647583;0.8480201363563538
2;0.7065228223800659;0.799042820930481;0.7834757566452026;0.544069766998291
3;0.7786710262298584;0.590636670589447;0.8603988885879517;0.38594499230384827
4;0.8221227526664734;0.47583091259002686;0.9074074029922485;0.2814991772174835
5;0.8574336171150208;0.3818606436252594;0.9145299196243286;0.25060009956359863
6;0.8717818260192871;0.33134332299232483;0.9237892031669617;0.22031061351299286
7;0.8988500833511353;0.27832743525505066;0.9216524362564087;0.21460047364234924
8;0.9093314409255981;0.2453010529279709;0.9444444179534912;0.14595557749271393
9;0.923984944820404;0.21170511841773987;0.9636752009391785;0.11354948580265045
10;0.9352803230285645;0.1778281033039093;0.9551281929016113;0.12079553306102753
11;0.9415894746780396;0.16332963109016418;0.9629629850387573;0.09927906095981598
12;0.948000431060791;0.14380806684494019;0.9707977175712585;0.07986472547054291
13;0.9546148180961609;0.13358356058597565;0.9722222089767456;0.08084145933389664
14;0.9555307030677795;0.12247263640165329;0.9686609506607056;0.07837726920843124
15;0.9586852788925171;0.11473505944013596;0.9750712513923645;0.06700490415096283
16;0.963773250579834;0.10227061808109283;0.9786324501037598;0.06689643114805222
17;0.9668260812759399;0.09853368997573853;0.9707977175712585;0.08392321318387985
18;0.9738475680351257;0.078725665807724;0.9764957427978516;0.07427265495061874
19;0.9647908806800842;0.10206528753042221;0.9821937084197998;0.053559187799692154
20;0.9762898087501526;0.07360105961561203;0.9793447256088257;0.056192491203546524
21;0.9749669432640076;0.07229980081319809;0.9800570011138916;0.04636077210307121
22;0.979240894317627;0.058648038655519485;0.9793447256088257;0.06684695929288864
23;0.9774091839790344;0.0658784881234169;0.9807692170143127;0.05051078274846077
24;0.9797496795654297;0.06103074178099632;0.9814814925193787;0.05436299368739128
25;0.9827007055282593;0.052471376955509186;0.9864672422409058;0.04539036378264427
26;0.9857535362243652;0.044506363570690155;0.9857549667358398;0.04579360410571098
27;0.9778162240982056;0.0667385533452034;0.9800570011138916;0.050123993307352066
28;0.9831077456474304;0.04733778163790703;0.9864672422409058;0.04670465365052223
29;0.9851429462432861;0.041988033801317215;0.9843304753303528;0.06456619501113892
30;0.9866693615913391;0.046450525522232056;0.9850427508354187;0.04297025129199028
31;0.9863641262054443;0.04168708994984627;0.9821937084197998;0.051875852048397064
32;0.984939455986023;0.04216930270195007;0.9893162250518799;0.03730405867099762
33;0.9852447509765625;0.04729286581277847;0.9900285005569458;0.03216617554426193
34;0.9856517910957336;0.03938121721148491;0.9907407164573669;0.022628409788012505
35;0.9888063669204712;0.034004729241132736;0.9886040091514587;0.045241665095090866
36;0.9880940318107605;0.03778166323900223;0.9850427508354187;0.046733926981687546
37;0.9837183356285095;0.05278552323579788;0.9871794581413269;0.03552250564098358
38;0.9867711663246155;0.037636447697877884;0.9914529919624329;0.03081650286912918
39;0.9905362725257874;0.032023195177316666;0.9935897588729858;0.019890645518898964
40;0.9931820631027222;0.02029440365731716;0.9786324501037598;0.07572171092033386
41;0.9871782064437866;0.038035549223423004;0.9914529919624329;0.033620137721300125
42;0.9897221922874451;0.03257181867957115;0.9878917336463928;0.04297799989581108
43;0.9905362725257874;0.028475191444158554;0.9878917336463928;0.044912226498126984
44;0.9892134070396423;0.03194913640618324;0.9878917336463928;0.04241392761468887
45;0.9872799515724182;0.04000299796462059;0.9871794581413269;0.053797174245119095
46;0.9908415675163269;0.03055993653833866;0.9907407164573669;0.04693935066461563
47;0.9913503527641296;0.026491506025195122;0.9907407164573669;0.029989562928676605
48;0.9908415675163269;0.026667580008506775;0.9878917336463928;0.03758641704916954
49;0.9934873580932617;0.021057995036244392;0.9878917336463928;0.04662467539310455
50;0.9904345273971558;0.03247302770614624;0.9878917336463928;0.044047705829143524
51;0.9932838082313538;0.02033972553908825;0.9886040091514587;0.04474891349673271
52;0.9925714731216431;0.026097433641552925;0.9907407164573669;0.03663908317685127
53;0.9931820631027222;0.022542407736182213;0.9893162250518799;0.059775397181510925
54;0.9926732182502747;0.0239589624106884;0.9921652674674988;0.033422861248254776
55;0.9907398223876953;0.02758285030722618;0.9914529919624329;0.04512364789843559
56;0.9918591380119324;0.028381986543536186;0.9914529919624329;0.046017810702323914
57;0.9908415675163269;0.02732657641172409;0.9928774833679199;0.031773608177900314
58;0.9907398223876953;0.030817847698926926;0.9928774833679199;0.04585293307900429
59;0.9947084784507751;0.019089097157120705;0.9878917336463928;0.05510672181844711
60;0.9935891032218933;0.01892973855137825;0.9893162250518799;0.04247862100601196
61;0.9887045621871948;0.035778146237134933;0.9836182594299316;0.07558153569698334
62;0.991248607635498;0.03022041730582714;0.9907407164573669;0.05531735345721245
63;0.995624303817749;0.015764592215418816;0.9886040091514587;0.05311208963394165
64;0.9953190088272095;0.01742391847074032;0.9907407164573669;0.04373433440923691
65;0.9941996335983276;0.01669463887810707;0.9921652674674988;0.049622684717178345
66;0.9938943982124329;0.017902493476867676;0.9878917336463928;0.05617424473166466
67;0.994301438331604;0.020212624222040176;0.9886040091514587;0.04477354884147644
68;0.9945049285888672;0.017674656584858894;0.9886040091514587;0.06421652436256409
69;0.9931820631027222;0.02293962426483631;0.9836182594299316;0.07130417227745056
70;0.9920626878738403;0.027306415140628815;0.994301974773407;0.04198107868432999
71;0.9929785132408142;0.022568127140402794;0.9914529919624329;0.03553806245326996
72;0.9951155185699463;0.015326933935284615;0.9900285005569458;0.042502764612436295
73;0.992775022983551;0.021851375699043274;0.9928774833679199;0.04269468039274216
74;0.9951155185699463;0.013809576630592346;0.9900285005569458;0.042405515909194946
75;0.9929785132408142;0.02372165024280548;0.9857549667358398;0.06751999258995056
76;0.994301438331604;0.020288163796067238;0.9914529919624329;0.03422625735402107
77;0.9925714731216431;0.028126679360866547;0.9914529919624329;0.0388914979994297
78;0.9954207539558411;0.015332904644310474;0.9950142502784729;0.03366383910179138
79;0.9948102235794067;0.016236653551459312;0.9914529919624329;0.03417500481009483
80;0.9948102235794067;0.016255062073469162;0.9928774833679199;0.023468609899282455
81;0.9951155185699463;0.016610514372587204;0.9900285005569458;0.037881094962358475
82;0.9962348341941833;0.010574882850050926;0.9893162250518799;0.0402657613158226
83;0.994097888469696;0.019793380051851273;0.9871794581413269;0.058945298194885254
84;0.9939961433410645;0.01920987106859684;0.9836182594299316;0.06955007463693619
85;0.9951155185699463;0.016566408798098564;0.9893162250518799;0.0382058322429657
86;0.9967436790466309;0.012597366236150265;0.9914529919624329;0.03614719957113266
87;0.9964383840560913;0.012169292196631432;0.9935897588729858;0.030234497040510178
88;0.9945049285888672;0.021163996309041977;0.9914529919624329;0.04245753586292267
89;0.995624303817749;0.014588777907192707;0.9914529919624329;0.0409013032913208
90;0.9948102235794067;0.015176369808614254;0.9950142502784729;0.02800597809255123
91;0.9968454241752625;0.010835753753781319;0.9857549667358398;0.06529372930526733
92;0.9938943982124329;0.021150270476937294;0.9921652674674988;0.04539528489112854
93;0.9938943982124329;0.01963850110769272;0.9914529919624329;0.04049457237124443
94;0.9963366389274597;0.012422117404639721;0.9921652674674988;0.024637555703520775
95;0.9944031834602356;0.01803773082792759;0.9878917336463928;0.053874850273132324
96;0.9951155185699463;0.01783650554716587;0.9907407164573669;0.04673110693693161
97;0.9941996335983276;0.017626814544200897;0.9935897588729858;0.05334965139627457
98;0.9959295988082886;0.014403298497200012;0.9900285005569458;0.04656994342803955
99;0.9954207539558411;0.016992313787341118;0.9871794581413269;0.061979733407497406
0;0.1737051010131836;2.9754724502563477;0.4622507095336914;1.7319577932357788
1;0.5157219767570496;1.4054421186447144;0.7129629850387573;0.8940300345420837
2;0.666530966758728;0.9292404055595398;0.7920227646827698;0.627899706363678
3;0.7378650903701782;0.7076835632324219;0.8475783467292786;0.45772916078567505
4;0.7862012982368469;0.5625197291374207;0.8653846383094788;0.37257158756256104
5;0.8278213143348694;0.4681973159313202;0.8696581125259399;0.3140658438205719
6;0.8456293940544128;0.4063792824745178;0.9109686613082886;0.24954412877559662
7;0.8738170266151428;0.33594411611557007;0.9287749528884888;0.20901571214199066
8;0.88490891456604;0.30030563473701477;0.9116809368133545;0.23193387687206268
9;0.908720850944519;0.254179447889328;0.9351851940155029;0.16899821162223816
10;0.916149377822876;0.22446823120117188;0.9337607026100159;0.1672438383102417
11;0.9267324805259705;0.20065739750862122;0.9437322020530701;0.14106452465057373
12;0.9359926581382751;0.1756974160671234;0.9586894512176514;0.11145500093698502
13;0.9422000646591187;0.16569402813911438;0.9636752009391785;0.09620365500450134
14;0.9438282251358032;0.1529439389705658;0.9665242433547974;0.09738398343324661
15;0.9519690871238708;0.13450613617897034;0.9565526843070984;0.10837135463953018
16;0.9591940641403198;0.1231900230050087;0.9679487347602844;0.08895763009786606
17;0.9626539349555969;0.10874910652637482;0.9558404684066772;0.10887186229228973
18;0.9665207862854004;0.09957820922136307;0.9586894512176514;0.11725768446922302
19;0.9614328145980835;0.10819201171398163;0.9793447256088257;0.06131941080093384
20;0.9704894423484802;0.08401036262512207;0.9772079586982727;0.07222720235586166
21;0.9666225910186768;0.09431307017803192;0.9814814925193787;0.05310821533203125
22;0.9665207862854004;0.09815815091133118;0.9700854420661926;0.08820848166942596
23;0.9752722382545471;0.07208967953920364;0.9843304753303528;0.042358994483947754
24;0.979037344455719;0.06343204528093338;0.9807692170143127;0.061125025153160095
25;0.9802584648132324;0.05786355957388878;0.9821937084197998;0.046413078904151917
26;0.9788338541984558;0.06111539527773857;0.9800570011138916;0.05714833736419678
27;0.9813778400421143;0.05705365911126137;0.9793447256088257;0.052587974816560745
28;0.9795461297035217;0.06445710361003876;0.9836182594299316;0.043526727706193924
29;0.9796479344367981;0.05866193398833275;0.9693732261657715;0.08034873753786087
30;0.9795461297035217;0.06395740807056427;0.9864672422409058;0.05038367211818695
31;0.9808690547943115;0.05689724162220955;0.9907407164573669;0.025213118642568588
32;0.9812760949134827;0.05536095052957535;0.9836182594299316;0.04195122420787811
33;0.9869746565818787;0.04104375094175339;0.9857549667358398;0.04445383697748184
34;0.9855499863624573;0.042055923491716385;0.9750712513923645;0.09251327812671661
35;0.9894168972969055;0.03787842392921448;0.9850427508354187;0.04720614477992058
36;0.9863641262054443;0.04110795259475708;0.9914529919624329;0.02178352139890194
37;0.9863641262054443;0.03822922334074974;0.9850427508354187;0.04223767668008804
0;0.15141956508159637;3.190117359161377;0.4615384638309479;1.7904525995254517
1;0.5093110799789429;1.475138783454895;0.6937322020530701;0.9246513843536377
2;0.6780298948287964;0.9020911455154419;0.8062677979469299;0.535000205039978
3;0.7561819553375244;0.651936948299408;0.8639600872993469;0.38266900181770325
4;0.8157117962837219;0.5094804167747498;0.8896011114120483;0.32294756174087524
5;0.847562849521637;0.4229719638824463;0.9180911779403687;0.23158997297286987
6;0.8767681121826172;0.34271931648254395;0.9166666865348816;0.22458747029304504
7;0.8933550715446472;0.2932611107826233;0.93304842710495;0.1963973343372345
8;0.9047521948814392;0.2568376064300537;0.9451566934585571;0.15633128583431244
9;0.9077032804489136;0.24932637810707092;0.9415954351425171;0.15376164019107819
10;0.9317187070846558;0.1963433176279068;0.9551281929016113;0.12864592671394348
11;0.9285641312599182;0.19953162968158722;0.9636752009391785;0.09911984205245972
12;0.9398595690727234;0.16924463212490082;0.9594017267227173;0.12576299905776978
13;0.9455581307411194;0.1516857147216797;0.9693732261657715;0.08928889781236649
14;0.948000431060791;0.1469283103942871;0.9565526843070984;0.11073227971792221
15;0.9545130729675293;0.13377276062965393;0.9608262181282043;0.10018306970596313
16;0.9529866576194763;0.13497045636177063;0.9764957427978516;0.08878450840711594
17;0.9598045945167542;0.1166481152176857;0.9843304753303528;0.058897655457258224
18;0.9592958092689514;0.12353064864873886;0.9722222089767456;0.080645851790905
19;0.9676401615142822;0.09126020967960358;0.9757834672927856;0.09037446230649948
20;0.9695736169815063;0.08955494314432144;0.9800570011138916;0.06891007721424103
21;0.9698789119720459;0.08899308741092682;0.9807692170143127;0.05781962350010872
22;0.9711000323295593;0.08335896581411362;0.9757834672927856;0.0691075250506401
23;0.9649944305419922;0.10245642811059952;0.9807692170143127;0.06368207186460495
24;0.9726264476776123;0.0852045863866806;0.9650996923446655;0.12250122427940369
25;0.973135232925415;0.07405781745910645;0.9864672422409058;0.046651650220155716
26;0.976188063621521;0.07496310025453568;0.9857549667358398;0.04452879726886749
27;0.973135232925415;0.07691846042871475;0.9878917336463928;0.03669341653585434
28;0.9814795851707458;0.05896143242716789;0.9871794581413269;0.03196857124567032
29;0.9817848801612854;0.053983423858881;0.9814814925193787;0.07648193836212158
30;0.9811742901802063;0.06195523589849472;0.9857549667358398;0.041402556002140045
31;0.9810725450515747;0.059884700924158096;0.9814814925193787;0.054339103400707245
32;0.9766968488693237;0.0731901079416275;0.9935897588729858;0.028661224991083145
33;0.9828025102615356;0.05372157692909241;0.9864672422409058;0.02822742611169815
34;0.9804620146751404;0.0595347061753273;0.9886040091514587;0.04443848878145218
35;0.9811742901802063;0.06099710613489151;0.9829059839248657;0.0489058755338192
36;0.9842271208763123;0.04803626239299774;0.9907407164573669;0.03024929203093052
37;0.9831077456474304;0.05145801976323128;0.9850427508354187;0.03677152842283249
38;0.9829042553901672;0.05579220876097679;0.9871794581413269;0.03690207004547119
39;0.9844306707382202;0.04901980608701706;0.9900285005569458;0.03768758848309517
40;0.982090175151825;0.055994704365730286;0.9800570011138916;0.06344527006149292
41;0.984939455986023;0.04802129417657852;0.9914529919624329;0.03530708700418472
42;0.9861605763435364;0.04029052332043648;0.9850427508354187;0.049654942005872726
43;0.9851429462432861;0.051918234676122665;0.9829059839248657;0.06492127478122711
44;0.9844306707382202;0.043606098741292953;0.9871794581413269;0.03816011920571327
45;0.9910450577735901;0.033740874379873276;0.9921652674674988;0.026926252990961075
46;0.9791390895843506;0.06283703446388245;0.9907407164573669;0.0286383256316185
47;0.9853464961051941;0.04938329756259918;0.9914529919624329;0.021719196811318398
48;0.9871782064437866;0.03903459012508392;0.9928774833679199;0.025777187198400497
49;0.9880940318107605;0.03669223561882973;0.9893162250518799;0.04018359258770943
50;0.9893151521682739;0.03629666194319725;0.9886040091514587;0.04083419218659401
51;0.9903327822685242;0.03151990473270416;0.9935897588729858;0.028882214799523354
52;0.984939455986023;0.0516665056347847;0.9907407164573669;0.019389163702726364
53;0.9848377108573914;0.049248866736888885;0.9935897588729858;0.03658707067370415
54;0.9894168972969055;0.03241576999425888;0.9907407164573669;0.034510497003793716
55;0.9895187020301819;0.03296462818980217;0.9914529919624329;0.03103671967983246
56;0.9873816967010498;0.03786534443497658;0.9857549667358398;0.05843096226453781
57;0.9853464961051941;0.04206306114792824;0.9900285005569458;0.04099021106958389
58;0.9867711663246155;0.04176119714975357;0.9864672422409058;0.050287120044231415
59;0.9882975220680237;0.03740886598825455;0.9864672422409058;0.03315882757306099
60;0.990638017654419;0.032138723880052567;0.9878917336463928;0.04381544888019562
61;0.9864658713340759;0.050483863800764084;0.9907407164573669;0.03135331720113754
62;0.9910450577735901;0.027466624975204468;0.9935897588729858;0.02199823595583439
63;0.9924697279930115;0.024813303723931313;0.9921652674674988;0.034554969519376755
64;0.9896204471588135;0.03142138943076134;0.9871794581413269;0.03745201975107193
65;0.9897221922874451;0.029320349916815758;0.994301974773407;0.026778435334563255
66;0.9917573928833008;0.026715703308582306;0.9928774833679199;0.03983508050441742
67;0.9922661781311035;0.02676595002412796;0.9829059839248657;0.09528452903032303
68;0.9878904819488525;0.0451519638299942;0.9928774833679199;0.029803529381752014
69;0.9890098571777344;0.03597008064389229;0.9864672422409058;0.04670485109090805
70;0.9895187020301819;0.033447809517383575;0.9893162250518799;0.04519582912325859
71;0.9911468625068665;0.02773399092257023;0.9893162250518799;0.05158182606101036
72;0.9875852465629578;0.042749229818582535;0.9914529919624329;0.02234882302582264
73;0.9893151521682739;0.031021319329738617;0.9935897588729858;0.02838030457496643
74;0.9869746565818787;0.04079652205109596;0.9935897588729858;0.030213790014386177
75;0.989925742149353;0.0289566982537508;0.9871794581413269;0.03659818693995476
76;0.9876869916915894;0.043620623648166656;0.9871794581413269;0.04236433655023575
77;0.987788736820221;0.044152092188596725;0.9878917336463928;0.04513885825872421
78;0.9920626878738403;0.02610471472144127;0.9886040091514587;0.05662556737661362
79;0.9925714731216431;0.02379959262907505;0.9871794581413269;0.043206050992012024
80;0.9914520978927612;0.024310167878866196;0.9864672422409058;0.04174940660595894
81;0.9930803179740906;0.027471816167235374;0.9950142502784729;0.027126969769597054
82;0.9934873580932617;0.02170713059604168;0.9857549667358398;0.050548698753118515
83;0.9930803179740906;0.023951968178153038;0.9914529919624329;0.02958795242011547
84;0.9861605763435364;0.050820812582969666;0.9907407164573669;0.03993087634444237
85;0.9883993268013;0.03976638987660408;0.9950142502784729;0.02730819769203663
86;0.9936908483505249;0.021930910646915436;0.9907407164573669;0.025296781212091446
87;0.9922661781311035;0.026485180482268333;0.9921652674674988;0.03737190365791321
88;0.9945049285888672;0.019982127472758293;0.9900285005569458;0.044177331030368805
89;0.9885010719299316;0.03868209570646286;0.9914529919624329;0.033388473093509674
90;0.9939961433410645;0.018244758248329163;0.9921652674674988;0.03589741885662079
91;0.9922661781311035;0.025658659636974335;0.9950142502784729;0.013783874921500683
92;0.9916556477546692;0.02798527479171753;0.9928774833679199;0.035852767527103424
93;0.9907398223876953;0.03281725198030472;0.9864672422409058;0.05879078805446625
94;0.9920626878738403;0.027847766876220703;0.9850427508354187;0.0622461661696434
95;0.9900274872779846;0.034260835498571396;0.9914529919624329;0.03767324239015579
96;0.9922661781311035;0.024049919098615646;0.9878917336463928;0.05421582981944084
97;0.9894168972969055;0.0385422557592392;0.9921652674674988;0.027574190869927406
98;0.9929785132408142;0.02229391224682331;0.9935897588729858;0.031952787190675735
99;0.990638017654419;0.02822241187095642;0.9935897588729858;0.026783443987369537
0;0.15711814165115356;3.175281286239624;0.4722222089767456;1.7486271858215332
1;0.5098198652267456;1.4378776550292969;0.68660968542099;0.9559007287025452
2;0.6679556369781494;0.9228552579879761;0.7977207899093628;0.5766016244888306
3;0.7511956691741943;0.6831567287445068;0.8254985809326172;0.47674211859703064
4;0.8018723726272583;0.5378856062889099;0.8653846383094788;0.37042897939682007
5;0.8413554430007935;0.4350062608718872;0.9059829115867615;0.2558079957962036
6;0.8590617775917053;0.37962785363197327;0.9180911779403687;0.21095184981822968
7;0.8833824992179871;0.3216725289821625;0.9180911779403687;0.20624476671218872
8;0.8935585618019104;0.2879798114299774;0.9501424431800842;0.1600915789604187
9;0.908720850944519;0.2566363513469696;0.9558404684066772;0.1410197615623474
10;0.9188969135284424;0.21941658854484558;0.9586894512176514;0.1297808736562729
11;0.932736337184906;0.18722891807556152;0.9544159770011902;0.1351935714483261
12;0.9383331537246704;0.17505362629890442;0.9650996923446655;0.11141635477542877
13;0.9369085431098938;0.17567677795886993;0.9672364592552185;0.10863200575113297
14;0.9422000646591187;0.16277748346328735;0.9572649598121643;0.13141939043998718
15;0.9509514570236206;0.13469809293746948;0.9558404684066772;0.1169929951429367
16;0.9549201130867004;0.13690447807312012;0.9700854420661926;0.09718020260334015
17;0.9586852788925171;0.12079863250255585;0.9622507095336914;0.1054379940032959
18;0.9630609750747681;0.10777037590742111;0.9715099930763245;0.08555790036916733
19;0.9646891355514526;0.10520439594984055;0.9736467003822327;0.07338445633649826
20;0.9639768004417419;0.10889100283384323;0.9807692170143127;0.06301249563694
21;0.9723211526870728;0.08701969683170319;0.9729344844818115;0.0805959403514862
22;0.9717106223106384;0.08398362994194031;0.9786324501037598;0.07191410660743713
23;0.9699806571006775;0.08822774887084961;0.9764957427978516;0.08362411707639694
24;0.9738475680351257;0.08252190053462982;0.9786324501037598;0.06899585574865341
25;0.9770021438598633;0.06975583732128143;0.9864672422409058;0.05808424949645996
26;0.9692683219909668;0.09314732998609543;0.9893162250518799;0.04654163867235184
27;0.9780197143554688;0.06511781364679337;0.9829059839248657;0.06752191483974457
28;0.9741528630256653;0.08169927448034286;0.9757834672927856;0.0740526020526886
29;0.9781215190887451;0.06447837501764297;0.9772079586982727;0.07644381374120712
30;0.9835147857666016;0.05161592364311218;0.9829059839248657;0.0749678909778595
31;0.980563759803772;0.06276515126228333;0.9693732261657715;0.0908835232257843
32;0.9754757285118103;0.07473906874656677;0.9871794581413269;0.04264257848262787
33;0.9800549745559692;0.06033458560705185;0.9843304753303528;0.06209805980324745
34;0.9840236306190491;0.04964599758386612;0.9857549667358398;0.04963500052690506
35;0.9806655049324036;0.05671967193484306;0.9843304753303528;0.05834268778562546
36;0.9807672500610352;0.052942436188459396;0.9829059839248657;0.06804921478033066
37;0.9842271208763123;0.04790651053190231;0.9814814925193787;0.07789228111505508
38;0.9853464961051941;0.043618109077215195;0.9800570011138916;0.06766362488269806
39;0.9852447509765625;0.04272761195898056;0.9814814925193787;0.07727500051259995
40;0.9831077456474304;0.05338333919644356;0.9829059839248657;0.06279204040765762
41;0.9817848801612854;0.05733970180153847;0.9864672422409058;0.05734599009156227
42;0.9871782064437866;0.04068676009774208;0.9821937084197998;0.07743832468986511
43;0.9854482412338257;0.042897868901491165;0.9793447256088257;0.07429877668619156
44;0.9828025102615356;0.057750847190618515;0.9814814925193787;0.07785772532224655
45;0.9872799515724182;0.03809530660510063;0.9800570011138916;0.07969988137483597
46;0.9883993268013;0.03329229727387428;0.9843304753303528;0.0584610179066658
47;0.9886028170585632;0.03430156782269478;0.9821937084197998;0.0670851618051529
48;0.9852447509765625;0.04721148684620857;0.9857549667358398;0.0650239810347557
49;0.9841253757476807;0.046911124140024185;0.9857549667358398;0.06517406553030014
50;0.9871782064437866;0.04033001512289047;0.9871794581413269;0.058154042810201645
51;0.9893151521682739;0.035267528146505356;0.9864672422409058;0.05609825998544693
52;0.9856517910957336;0.04390466958284378;0.9843304753303528;0.08684464544057846
53;0.9845324158668518;0.049856916069984436;0.9857549667358398;0.05887492746114731
54;0.9878904819488525;0.04049815982580185;0.9871794581413269;0.05720902606844902
55;0.9851429462432861;0.04527420178055763;0.9843304753303528;0.07493126392364502
56;0.9896204471588135;0.032660264521837234;0.9914529919624329;0.04307664930820465
57;0.9900274872779846;0.03178699314594269;0.9878917336463928;0.06770683825016022
58;0.9900274872779846;0.033407535403966904;0.9900285005569458;0.05491064488887787
59;0.9874834418296814;0.03899409994482994;0.9864672422409058;0.06356111168861389
60;0.9858552813529968;0.04818028211593628;0.9914529919624329;0.039547402411699295
61;0.9914520978927612;0.026811741292476654;0.9893162250518799;0.04739787057042122
62;0.9904345273971558;0.02926822379231453;0.9814814925193787;0.05999261513352394
63;0.9939961433410645;0.02327072247862816;0.9886040091514587;0.06144962087273598
64;0.9900274872779846;0.03445436805486679;0.9807692170143127;0.07865079492330551
65;0.9897221922874451;0.03697926923632622;0.9864672422409058;0.07335619628429413
66;0.9898239374160767;0.031919926404953;0.9814814925193787;0.08770090341567993
67;0.9870764017105103;0.042294375598430634;0.9886040091514587;0.050548482686281204
68;0.9876869916915894;0.0387946218252182;0.9893162250518799;0.05615076422691345
69;0.9897221922874451;0.03500484675168991;0.9871794581413269;0.05469680204987526
70;0.9944031834602356;0.016739241778850555;0.9850427508354187;0.05908362939953804
71;0.9904345273971558;0.03301514685153961;0.9864672422409058;0.06241391971707344
72;0.9866693615913391;0.039705608040094376;0.9850427508354187;0.0647306814789772
73;0.9930803179740906;0.02376393973827362;0.9900285005569458;0.046151455491781235
74;0.9903327822685242;0.02910720370709896;0.9878917336463928;0.06157927215099335
75;0.9916556477546692;0.026390811428427696;0.9907407164573669;0.058407124131917953
76;0.9895187020301819;0.036223676055669785;0.9921652674674988;0.04966018721461296
77;0.9898239374160767;0.03216943517327309;0.9793447256088257;0.0871720090508461
78;0.9895187020301819;0.035318125039339066;0.9928774833679199;0.031814608722925186
79;0.9928767681121826;0.022441614419221878;0.9900285005569458;0.05188987776637077
80;0.994301438331604;0.01829105243086815;0.9829059839248657;0.08937186747789383
81;0.994097888469696;0.018356947228312492;0.9886040091514587;0.07262392342090607
82;0.9920626878738403;0.025090327486395836;0.9878917336463928;0.07493310421705246
83;0.9908415675163269;0.037129033356904984;0.9886040091514587;0.07352703809738159
84;0.9915539026260376;0.032670654356479645;0.9871794581413269;0.06144161894917488
85;0.9916556477546692;0.027176672592759132;0.9821937084197998;0.08362527936697006
86;0.9915539026260376;0.024934548884630203;0.9914529919624329;0.051653455942869186
87;0.9914520978927612;0.029558435082435608;0.9893162250518799;0.06131165102124214
88;0.9910450577735901;0.03196895495057106;0.9907407164573669;0.06266060471534729
89;0.9902309775352478;0.031133277341723442;0.9864672422409058;0.0778149738907814
90;0.9914520978927612;0.028944924473762512;0.9900285005569458;0.05543431639671326
91;0.9958277940750122;0.014269481413066387;0.9893162250518799;0.07100548595190048
92;0.9917573928833008;0.027899501845240593;0.9907407164573669;0.06083414703607559
93;0.9908415675163269;0.030033696442842484;0.9914529919624329;0.051742058247327805
94;0.9963366389274597;0.011049138382077217;0.9914529919624329;0.04867934808135033
95;0.9901292324066162;0.03374955803155899;0.9900285005569458;0.054312415421009064
96;0.9897221922874451;0.03300081565976143;0.9836182594299316;0.09145157784223557
97;0.9937925934791565;0.018576709553599358;0.9829059839248657;0.09308727830648422
98;0.9936908483505249;0.019757982343435287;0.9921652674674988;0.04424367845058441
99;0.992775022983551;0.022668788209557533;0.9836182594299316;0.09855654090642929
